# r [cm]    rho [g/cm^3]
3.46365e+13 3.96400e-11
3.55802e+13 3.21620e-11
3.72000e+13 2.94736e-11
3.89590e+13 2.71371e-11
4.02339e+13 2.60095e-11
4.32521e+13 2.22139e-11
4.53184e+13 1.99072e-11
4.74613e+13 1.81668e-11
4.97055e+13 1.65601e-11
5.20558e+13 1.51123e-11
5.45172e+13 1.37911e-11
5.70950e+13 1.25575e-11
5.97948e+13 1.11035e-11
6.26221e+13 1.04461e-11
6.55832e+13 9.84153e-12
6.88046e+13 9.22030e-12
7.19320e+13 8.82804e-12
7.53333e+13 7.26093e-12
7.88954e+13 6.61877e-12
8.26259e+13 6.04683e-12
8.65329e+13 5.51205e-12
9.06245e+13 5.03015e-12
9.49097e+13 4.58528e-12
9.95019e+13 4.29245e-12
1.03130e+14 3.79166e-12
1.07655e+14 3.53864e-12
1.12745e+14 3.20780e-12
1.53198e+14 1.71445e-12
1.60442e+14 1.55923e-12
1.68029e+14 1.42614e-12
1.76715e+14 1.29602e-12
1.85071e+14 1.18424e-12
1.93009e+14 1.05987e-12
1.96967e+14 7.84415e-13
1.97407e+14 5.71712e-13
2.00866e+14 3.94947e-13
2.01077e+14 2.99041e-13
2.05096e+14 2.05099e-13
2.05964e+14 1.35722e-13
2.07149e+14 9.03740e-14
2.09043e+14 4.74507e-14
2.09652e+14 3.42303e-14
2.10617e+14 2.33988e-14
2.11605e+14 1.66526e-14
2.11397e+14 1.28187e-14
2.15884e+14 9.23271e-15
2.25324e+14 7.92044e-15
2.35979e+14 7.09392e-15
2.46680e+14 6.35988e-15
2.57893e+14 5.80046e-15
2.69709e+14 5.34896e-15
2.82383e+14 5.16051e-15
2.95844e+14 4.72995e-15
3.10066e+14 4.24594e-15
3.25336e+14 3.94534e-15
3.40273e+14 3.38793e-15
3.57400e+14 3.15955e-15
3.74179e+14 2.73114e-15
3.90313e+14 2.65788e-15
4.09342e+14 2.39009e-15
4.28697e+14 2.13688e-15
4.48968e+14 1.91724e-15
4.70198e+14 1.73606e-15
4.92431e+14 1.57375e-15
5.15715e+14 1.43457e-15
5.40101e+14 1.30770e-15
5.65639e+14 1.19470e-15
5.92385e+14 1.09025e-15
6.20396e+14 9.94933e-16
6.49731e+14 9.07950e-16
6.80453e+14 8.24895e-16
7.12628e+14 7.55292e-16
7.46325e+14 6.90026e-16
7.81615e+14 6.27603e-16
8.18573e+14 5.73371e-16
8.57279e+14 5.23244e-16
8.97815e+14 4.78561e-16
9.40268e+14 4.35752e-16
9.86108e+14 4.01552e-16
1.02438e+15 3.59277e-16
1.07102e+15 3.36685e-16
1.12166e+15 3.07250e-16
1.17470e+15 2.80076e-16
1.23025e+15 2.55590e-16
1.28842e+15 2.33505e-16
1.34934e+15 2.13090e-16
1.41314e+15 1.94244e-16
1.47996e+15 1.77262e-16
1.54994e+15 1.61765e-16
1.62323e+15 1.47458e-16
1.69999e+15 1.34866e-16
1.78037e+15 1.22939e-16
1.86455e+15 1.12190e-16
1.95272e+15 1.02496e-16
2.04505e+15 9.33274e-17
2.14175e+15 8.52628e-17
2.24302e+15 7.78951e-17
2.34908e+15 7.08484e-17
2.46016e+15 6.46544e-17
2.57649e+15 5.91332e-17
2.69832e+15 5.39634e-17
2.82590e+15 4.91909e-17
2.95953e+15 4.48903e-17
3.09947e+15 4.09657e-17
3.24602e+15 3.73842e-17
3.39951e+15 3.41158e-17
3.56026e+15 3.10986e-17
3.72860e+15 2.84114e-17
3.90491e+15 2.59563e-17
4.08955e+15 2.36607e-17
4.28292e+15 2.15442e-17
4.48544e+15 1.97044e-17
4.69753e+15 1.79618e-17
4.91965e+15 1.63732e-17
5.15228e+15 1.48259e-17
5.41861e+15 1.27207e-17
5.67483e+15 1.20472e-17
5.94316e+15 1.13311e-17
6.22418e+15 1.06832e-17
6.54409e+15 9.70250e-18
7.14951e+15 7.80631e-18
7.48758e+15 7.11592e-18
7.84162e+15 6.51549e-18
8.21241e+15 5.93266e-18
8.60073e+15 5.41399e-18
9.00742e+15 4.94067e-18
9.43333e+15 4.50872e-18
9.81733e+15 4.19259e-18
4.17148e+13 2.40298e-11
1.45318e+14 1.96269e-12
1.21355e+14 2.88607e-12
1.28868e+14 2.67296e-12
1.35031e+14 2.28994e-12
1.39614e+14 2.11989e-12
2.06987e+14 6.71568e-14
6.88147e+15 8.65289e-18
