# r [cm]    rho [g/cm^3]
3.55170e+13 3.22335e-11
3.67274e+13 3.01640e-11
3.79790e+13 2.82274e-11
3.92733e+13 2.64364e-11
4.06116e+13 2.46992e-11
4.19956e+13 2.31321e-11
4.34267e+13 2.16644e-11
4.49066e+13 2.02408e-11
4.64369e+13 1.89566e-11
4.80194e+13 1.77395e-11
4.96558e+13 1.65872e-11
5.13480e+13 1.55222e-11
5.30979e+13 1.45491e-11
5.49073e+13 1.35821e-11
5.67785e+13 1.27204e-11
5.87134e+13 1.19037e-11
6.07142e+13 1.09884e-11
6.27832e+13 1.04158e-11
6.49228e+13 9.85933e-12
6.71352e+13 9.34061e-12
6.94231e+13 8.74890e-12
7.07037e+13 8.26733e-12
8.67132e+13 5.41966e-12
8.96682e+13 5.12927e-12
9.27239e+13 4.80771e-12
9.58838e+13 4.49541e-12
9.93607e+13 4.14041e-12
1.02530e+14 3.92086e-12
1.06024e+14 3.66027e-12
1.09637e+14 3.40599e-12
1.13374e+14 3.17193e-12
1.17237e+14 2.94444e-12
1.21232e+14 2.73013e-12
1.25364e+14 2.55340e-12
1.29636e+14 2.39242e-12
1.33037e+14 2.32298e-12
1.68464e+14 1.44692e-12
1.74205e+14 1.36913e-12
1.80141e+14 1.26557e-12
1.86022e+14 1.18919e-12
1.91055e+14 1.14438e-12
1.94919e+14 1.05916e-12
1.96225e+14 9.80066e-13
1.97539e+14 9.06878e-13
1.99496e+14 5.25445e-13
2.02250e+14 3.05121e-13
2.02883e+14 1.99304e-13
2.04242e+14 1.20270e-13
2.05610e+14 5.52908e-14
2.06987e+14 2.64257e-14
2.08373e+14 1.86285e-14
2.09768e+14 1.36523e-14
2.11173e+14 1.12426e-14
2.12587e+14 1.00065e-14
2.14084e+14 9.13509e-15
2.16886e+14 8.24214e-15
2.21605e+14 7.86331e-15
2.28781e+14 7.34173e-15
2.36966e+14 6.96351e-15
2.45041e+14 6.38481e-15
2.53392e+14 5.99035e-15
2.62027e+14 5.73382e-15
2.68082e+14 5.30040e-15
4.02618e+14 2.32885e-15
4.16338e+14 2.26539e-15
4.30527e+14 2.11093e-15
4.45198e+14 1.94263e-15
4.60370e+14 1.81790e-15
4.76058e+14 1.68753e-15
4.92281e+14 1.57537e-15
5.09057e+14 1.47303e-15
5.26405e+14 1.37624e-15
5.44344e+14 1.28788e-15
5.62894e+14 1.20519e-15
5.82076e+14 1.12600e-15
6.01913e+14 1.05541e-15
6.22425e+14 9.86851e-16
6.43636e+14 9.22748e-16
6.65570e+14 8.64898e-16
6.88251e+14 8.08717e-16
7.11705e+14 7.56184e-16
7.35959e+14 7.08206e-16
7.61039e+14 6.62737e-16
7.86974e+14 6.19687e-16
8.10082e+14 5.90710e-16
2.82900e+15 4.89117e-17
2.92541e+15 4.58822e-17
3.02510e+15 4.29711e-17
3.12819e+15 4.02122e-17
3.23480e+15 3.75698e-17
3.34503e+15 3.52144e-17
3.45902e+15 3.31134e-17
3.52283e+15 3.24364e-17
6.86493e+15 8.42437e-18
7.09887e+15 7.91534e-18
7.34079e+15 7.40715e-18
7.59095e+15 6.93718e-18
7.84963e+15 6.49179e-18
8.11713e+15 6.06521e-18
8.39375e+15 5.68496e-18
8.67979e+15 5.31997e-18
8.97558e+15 4.96638e-18
9.28145e+15 4.65878e-18
9.59775e+15 4.35616e-18
9.89463e+15 4.11001e-18

